freq,psd_x,psd_y,psd_z,psd_xyz
0.0,4.570e+03,3.636e+01,7.517e+00,4.614e+03
1.6,2.757e+03,4.224e+01,2.431e+01,2.823e+03
3.1,3.736e+02,3.156e+01,2.563e+01,4.307e+02
4.7,1.709e+03,3.687e+01,2.471e+01,1.770e+03
6.2,5.096e+03,4.562e+01,2.175e+01,5.163e+03
7.8,8.204e+03,5.676e+01,2.213e+01,8.283e+03
9.3,1.172e+04,7.446e+01,2.428e+01,1.182e+04
10.9,1.590e+04,8.593e+01,2.631e+01,1.602e+04
12.4,2.105e+04,1.028e+02,2.830e+01,2.118e+04
14.0,2.726e+04,1.295e+02,2.734e+01,2.742e+04
15.6,3.464e+04,1.643e+02,2.499e+01,3.483e+04
17.1,4.416e+04,2.216e+02,2.552e+01,4.441e+04
18.7,5.885e+04,3.762e+02,2.520e+01,5.925e+04
20.2,6.457e+04,5.280e+02,2.749e+01,6.512e+04
21.8,5.173e+04,3.248e+02,3.328e+01,5.208e+04
23.3,6.083e+04,7.440e+02,4.930e+01,6.162e+04
24.9,7.633e+04,8.568e+02,3.816e+01,7.722e+04
26.4,9.378e+04,6.941e+02,2.515e+01,9.449e+04
28.0,1.118e+05,7.506e+02,2.405e+01,1.125e+05
29.5,1.265e+05,7.244e+02,2.421e+01,1.272e+05
31.1,1.384e+05,5.681e+02,2.731e+01,1.390e+05
32.7,1.600e+05,5.909e+02,2.775e+01,1.607e+05
34.2,1.872e+05,6.691e+02,2.523e+01,1.879e+05
35.8,2.191e+05,8.293e+02,2.557e+01,2.200e+05
37.3,2.509e+05,1.001e+03,2.750e+01,2.519e+05
38.9,2.852e+05,1.179e+03,3.082e+01,2.864e+05
40.4,3.265e+05,1.397e+03,3.724e+01,3.279e+05
42.0,3.733e+05,1.634e+03,4.215e+01,3.750e+05
43.5,4.299e+05,1.893e+03,3.916e+01,4.318e+05
45.1,4.930e+05,2.196e+03,3.549e+01,4.952e+05
46.7,5.725e+05,2.629e+03,4.531e+01,5.752e+05
48.2,6.552e+05,3.241e+03,7.890e+01,6.585e+05
49.8,7.439e+05,3.870e+03,8.177e+01,7.479e+05
51.3,8.678e+05,4.453e+03,5.959e+01,8.723e+05
52.9,1.023e+06,5.425e+03,6.943e+01,1.029e+06
54.4,1.208e+06,6.575e+03,9.790e+01,1.215e+06
56.0,1.441e+06,7.578e+03,2.069e+02,1.449e+06
57.5,1.734e+06,1.047e+04,9.038e+02,1.745e+06
59.1,2.076e+06,1.982e+04,3.709e+03,2.100e+06
60.7,2.487e+06,3.760e+04,1.793e+04,2.543e+06
62.2,3.109e+06,4.564e+04,4.129e+04,3.196e+06
63.8,4.096e+06,1.913e+04,3.060e+04,4.145e+06
65.3,5.804e+06,2.065e+04,1.971e+04,5.844e+06
66.9,7.918e+06,3.484e+04,1.903e+04,7.971e+06
68.4,9.965e+06,4.764e+04,5.610e+03,1.002e+07
70.0,1.566e+07,7.693e+04,1.425e+03,1.574e+07
71.5,2.774e+07,1.317e+05,2.450e+03,2.788e+07
73.1,3.977e+07,2.012e+05,5.277e+03,3.997e+07
74.7,3.945e+07,1.971e+05,7.506e+03,3.966e+07
76.2,3.136e+07,1.617e+05,6.805e+03,3.153e+07
77.8,2.296e+07,1.413e+05,4.511e+03,2.311e+07
79.3,1.613e+07,1.168e+05,2.697e+03,1.625e+07
80.9,1.142e+07,7.606e+04,2.293e+03,1.150e+07
82.4,8.320e+06,3.296e+04,3.111e+03,8.356e+06
84.0,6.214e+06,1.068e+04,3.966e+03,6.228e+06
85.5,4.588e+06,4.907e+03,3.104e+03,4.596e+06
87.1,3.284e+06,3.552e+03,1.651e+03,3.289e+06
88.6,2.305e+06,3.100e+03,1.076e+03,2.309e+06
90.2,1.702e+06,4.907e+03,9.638e+02,1.708e+06
91.8,1.349e+06,7.851e+03,1.277e+03,1.358e+06
93.3,1.082e+06,9.469e+03,2.017e+03,1.094e+06
94.9,8.271e+05,8.661e+03,2.006e+03,8.378e+05
96.4,6.279e+05,9.000e+03,1.566e+03,6.384e+05
98.0,7.876e+05,2.351e+04,1.826e+03,8.129e+05
99.5,1.795e+06,5.979e+04,4.730e+03,1.859e+06
101.1,3.547e+06,7.251e+04,4.978e+03,3.625e+06
102.6,4.669e+06,5.273e+04,3.591e+03,4.725e+06
104.2,4.524e+06,3.092e+04,2.164e+03,4.557e+06
105.8,3.795e+06,2.890e+04,1.246e+03,3.825e+06
107.3,3.202e+06,3.331e+04,8.280e+02,3.236e+06
108.9,2.936e+06,3.134e+04,6.242e+02,2.968e+06
110.4,2.777e+06,3.810e+04,4.519e+02,2.815e+06
112.0,2.577e+06,5.262e+04,2.309e+02,2.630e+06
113.5,2.439e+06,4.740e+04,2.079e+02,2.486e+06
115.1,2.243e+06,2.681e+04,2.892e+02,2.270e+06
116.6,1.994e+06,1.634e+04,3.556e+02,2.011e+06
118.2,1.786e+06,1.536e+04,4.132e+02,1.801e+06
119.8,1.546e+06,1.810e+04,5.470e+02,1.564e+06
121.3,1.341e+06,2.549e+04,8.883e+02,1.367e+06
122.9,1.191e+06,2.070e+04,1.398e+03,1.213e+06
124.4,1.095e+06,9.819e+03,1.618e+03,1.107e+06
126.0,1.009e+06,6.803e+03,1.077e+03,1.017e+06
127.5,9.600e+05,1.104e+04,6.503e+02,9.717e+05
129.1,8.888e+05,1.180e+04,7.151e+02,9.014e+05
130.6,8.207e+05,2.453e+04,7.901e+02,8.461e+05
132.2,6.507e+05,4.212e+04,7.288e+02,6.936e+05
133.7,1.885e+05,1.213e+04,3.285e+02,2.009e+05
135.3,1.213e+04,1.448e+03,1.461e+02,1.373e+04
136.9,8.121e+03,1.856e+03,1.075e+02,1.008e+04
138.4,7.681e+03,2.712e+03,1.302e+02,1.052e+04
140.0,8.168e+03,3.371e+03,1.672e+02,1.171e+04
141.5,1.007e+04,4.071e+03,1.484e+02,1.429e+04
143.1,1.089e+04,8.496e+03,1.147e+02,1.950e+04
144.6,1.127e+04,1.247e+04,1.872e+02,2.392e+04
146.2,1.156e+04,1.450e+04,4.391e+02,2.650e+04
147.7,1.120e+04,1.763e+04,6.471e+02,2.947e+04
149.3,1.028e+04,2.344e+04,6.915e+02,3.441e+04
150.9,9.192e+03,2.720e+04,6.798e+02,3.707e+04
152.4,8.644e+03,2.443e+04,5.828e+02,3.366e+04
154.0,8.420e+03,1.477e+04,3.772e+02,2.357e+04
155.5,8.389e+03,8.167e+03,2.560e+02,1.681e+04
157.1,8.062e+03,5.717e+03,2.114e+02,1.399e+04
158.6,7.452e+03,4.309e+03,1.758e+02,1.194e+04
160.2,6.712e+03,3.008e+03,1.462e+02,9.866e+03
161.7,6.316e+03,2.094e+03,1.212e+02,8.531e+03
163.3,5.871e+03,1.915e+03,9.460e+01,7.882e+03
164.9,5.576e+03,2.074e+03,7.866e+01,7.729e+03
166.4,5.361e+03,1.860e+03,7.034e+01,7.292e+03
168.0,5.356e+03,1.379e+03,7.050e+01,6.806e+03
169.5,5.165e+03,1.325e+03,6.713e+01,6.557e+03
171.1,4.846e+03,1.581e+03,5.855e+01,6.486e+03
172.6,4.478e+03,1.938e+03,4.794e+01,6.463e+03
174.2,4.078e+03,2.238e+03,4.255e+01,6.359e+03
175.7,3.868e+03,2.709e+03,3.603e+01,6.613e+03
177.3,4.196e+03,3.492e+03,3.272e+01,7.720e+03
178.8,4.470e+03,3.749e+03,3.504e+01,8.254e+03
180.4,4.203e+03,3.344e+03,3.771e+01,7.585e+03
182.0,3.947e+03,3.224e+03,3.393e+01,7.205e+03
183.5,3.491e+03,2.653e+03,3.532e+01,6.179e+03
185.1,3.151e+03,2.357e+03,3.463e+01,5.543e+03
186.6,2.899e+03,2.366e+03,3.083e+01,5.296e+03
188.2,2.752e+03,2.278e+03,3.195e+01,5.061e+03
189.7,2.372e+03,2.425e+03,3.406e+01,4.832e+03
191.3,2.230e+03,2.793e+03,3.793e+01,5.062e+03
192.8,1.907e+03,3.102e+03,3.790e+01,5.047e+03
194.4,1.826e+03,3.365e+03,4.022e+01,5.231e+03
196.0,2.091e+03,3.627e+03,4.966e+01,5.767e+03
197.5,2.449e+03,3.884e+03,5.278e+01,6.386e+03
199.1,2.023e+03,4.521e+03,6.091e+01,6.605e+03
